// encoder resolution in tick per meter 
leftResolution:3800
rightResolution:3800
// distance between the 2 encoders in meter
encoderDistance:0.128000
// time (ms), left encoder (ticks), right encoder (ticks), left motor power (0-100), right motor power (0-100), order0, order1, x (mm), y (mm), theta (rad)
2,0,0,0,0,95,0,0,0,0.000000,0.000000,0.000000
14,0,0,0,0,380,0,0,0,0.000000,0.000000,0.000000
25,0,0,0,0,855,0,0,0,0.000000,0.000000,0.000000
36,0,0,0,0,1520,0,0,0,0.000000,0.000000,0.000000
46,0,0,0,0,2375,0,0,0,0.000000,0.000000,0.000000
56,0,0,0,0,3420,0,0,0,0.000000,0.000000,0.000000
69,0,0,0,0,4655,0,0,0,0.000000,0.000000,0.000000
79,0,0,-1,1,6080,0,0,0,0.000000,0.000000,0.000000
91,0,0,-1,1,7695,0,0,0,0.000000,0.000000,0.000000
103,0,0,-2,2,9500,0,0,0,0.000000,0.000000,0.000000
113,0,0,-2,2,11495,0,0,0,0.000000,0.000000,0.000000
123,-2,2,-3,3,13680,0,1000,0,0.000000,0.000000,0.004112
134,-5,5,-3,3,16055,0,4000,0,0.000000,0.000000,0.016447
144,-8,8,-3,3,18620,0,7000,0,0.000000,0.000000,0.028783
156,-11,11,-3,3,21375,0,10000,0,0.000000,0.000000,0.041118
166,-14,14,-3,3,24320,0,13000,0,0.000000,0.000000,0.053454
176,-17,17,-3,3,27455,0,16000,0,0.000000,0.000000,0.065789
188,-20,20,-3,3,30780,0,19000,0,0.000000,0.000000,0.078125
198,-23,23,-4,4,34295,0,22000,0,0.000000,0.000000,0.090461
209,-26,26,-4,4,38000,0,25000,0,0.000000,0.000000,0.102796
219,-29,29,-4,4,41895,0,28000,0,0.000000,0.000000,0.115132
230,-34,34,-5,5,45980,0,32000,0,0.000000,0.000000,0.131579
241,-40,40,-5,5,50255,0,38000,0,0.000000,0.000000,0.156250
251,-44,44,-4,4,54720,0,43000,0,0.000000,0.000000,0.176809
262,-47,47,-4,4,59375,0,46000,0,0.000000,0.000000,0.189145
273,-52,52,-5,5,64220,0,50000,0,0.000000,0.000000,0.205592
283,-58,58,-5,5,69255,0,56000,0,0.000000,0.000000,0.230263
293,-64,64,-5,5,74480,0,62000,0,0.000000,0.000000,0.254934
303,-70,70,-5,5,79895,0,68000,0,0.000000,0.000000,0.279605
314,-76,76,-5,5,85500,0,74000,0,0.000000,0.000000,0.304276
325,-82,82,-5,5,91295,0,80000,0,0.000000,0.000000,0.328947
337,-88,88,-5,5,97280,0,86000,0,0.000000,0.000000,0.353618
348,-94,94,-5,5,103075,0,92000,0,0.000000,0.000000,0.378289
358,-100,100,-5,5,108680,0,98000,0,0.000000,0.000000,0.402960
368,-106,106,-5,5,114095,0,104000,0,0.000000,0.000000,0.427632
380,-112,112,-5,5,119320,0,110000,0,0.000000,0.000000,0.452303
391,-118,118,-5,5,124355,0,116000,0,0.000000,0.000000,0.476974
403,-124,124,-5,5,129200,0,122000,0,0.000000,0.000000,0.501645
414,-130,130,-5,5,133855,0,128000,0,0.000000,0.000000,0.526316
425,-136,136,-5,5,138320,0,134000,0,0.000000,0.000000,0.550987
436,-140,140,-4,4,142595,0,139000,0,0.000000,0.000000,0.571546
447,-143,143,-4,4,146680,0,142000,0,0.000000,0.000000,0.583882
457,-146,146,-4,4,150575,0,145000,0,0.000000,0.000000,0.596217
469,-151,151,-5,5,154280,0,149000,0,0.000000,0.000000,0.612664
479,-157,157,-5,5,157795,0,155000,0,0.000000,0.000000,0.637336
490,-161,161,-4,4,161120,0,160000,0,0.000000,0.000000,0.657895
501,-164,164,-4,4,164255,0,163000,0,0.000000,0.000000,0.670230
514,-169,169,-4,4,167200,0,167000,0,0.000000,0.000000,0.686678
524,-173,173,-4,4,169955,0,172000,0,0.000000,0.000000,0.707237
536,-176,176,-3,3,172520,0,175000,0,0.000000,0.000000,0.719572
546,-179,179,-3,3,174895,0,178000,0,0.000000,0.000000,0.731908
556,-182,182,-3,3,177080,0,181000,0,0.000000,0.000000,0.744243
567,-183,183,-2,2,179075,0,183000,0,0.000000,0.000000,0.752467
578,-183,183,-2,2,180880,0,183000,0,0.000000,0.000000,0.752467
588,-185,185,-3,3,182495,0,184000,0,0.000000,0.000000,0.756579
599,-188,188,-3,3,183920,0,187000,0,0.000000,0.000000,0.768915
610,-191,191,-3,3,185155,0,190000,0,0.000000,0.000000,0.781250
620,-192,192,-2,2,186200,0,192000,0,0.000000,0.000000,0.789474
633,-194,194,-2,2,187055,0,193000,0,0.000000,0.000000,0.793586
645,-195,195,-2,2,187720,0,195000,0,0.000000,0.000000,0.801809
656,-195,195,-1,1,188195,0,195000,0,0.000000,0.000000,0.801809
667,-195,195,-1,1,188480,0,195000,0,0.000000,0.000000,0.801809
678,-195,195,-1,1,188575,0,195000,0,0.000000,0.000000,0.801809
689,-195,195,-1,1,191009,0,195000,0,0.000000,0.000000,0.801809
698,-195,195,0,0,195000,285,195000,0,0.000000,0.000000,0.801809
708,-195,195,-2,2,195000,760,195000,0,0.000000,0.000000,0.801809
718,-197,197,-3,3,195000,1425,196000,0,0.000000,0.000000,0.805921
729,-200,200,-3,3,195000,2280,199000,0,0.000000,0.000000,0.818257
741,-201,201,-2,2,195000,3325,201000,0,0.000000,0.000000,0.826480
750,-201,201,0,2,195000,4560,201000,0,0.000000,0.000000,0.826480
760,-201,201,0,2,195000,5985,201000,0,0.000000,0.000000,0.826480
770,-201,201,0,2,195000,7600,201000,0,0.000000,0.000000,0.826480
780,-201,203,1,3,195000,9405,201500,500,0.000090,0.000097,0.828536
792,-201,206,1,3,195000,11400,203000,2000,0.000357,0.000390,0.834704
802,-201,207,2,2,195000,13585,204000,3000,0.000534,0.000585,0.838816
814,-199,209,3,3,195000,15960,204000,4000,0.000712,0.000781,0.838816
824,-196,212,3,3,195000,18525,204000,7000,0.001244,0.001369,0.838816
835,-193,215,3,3,195000,21280,204000,10000,0.001776,0.001956,0.838816
845,-190,218,3,3,195000,24225,204000,13000,0.002308,0.002544,0.838816
856,-187,221,3,3,195000,27360,204000,16000,0.002840,0.003131,0.838816
870,-184,224,3,3,195000,30685,204000,19000,0.003372,0.003719,0.838816
881,-181,227,3,3,195000,34200,204000,22000,0.003904,0.004306,0.838816
893,-178,230,3,3,195000,37905,204000,25000,0.004436,0.004894,0.838816
903,-175,233,4,4,195000,41800,204000,28000,0.004968,0.005481,0.838816
914,-172,236,4,4,195000,45885,204000,31000,0.005500,0.006069,0.838816
926,-169,239,4,4,195000,50160,204000,34000,0.006032,0.006656,0.838816
937,-164,244,5,5,195000,54625,204000,38000,0.006742,0.007440,0.838816
948,-158,250,5,5,195000,59280,204000,44000,0.007806,0.008615,0.838816
958,-154,254,4,4,195000,64125,204000,49000,0.008692,0.009594,0.838816
968,-151,257,4,4,195000,69160,204000,52000,0.009224,0.010181,0.838816
979,-146,262,5,5,195000,74385,204000,56000,0.009934,0.010965,0.838816
989,-142,266,5,5,195000,79800,204000,61000,0.010821,0.011944,0.838816
999,-137,271,5,5,195000,85405,204000,65000,0.011530,0.012727,0.838816
1010,-131,277,6,6,195000,91200,204000,71000,0.012594,0.013902,0.838816
1021,-125,283,6,6,195000,97185,204000,77000,0.013658,0.015077,0.838816
1032,-117,289,7,5,195000,103360,203500,83500,0.014814,0.016348,0.836760
1043,-108,295,7,5,195000,109725,202000,91000,0.016156,0.017805,0.830592
1054,-101,301,5,5,195000,116280,201000,98000,0.017414,0.019161,0.826480
1064,-95,307,5,5,195000,123025,201000,104000,0.018493,0.020323,0.826480
1075,-89,313,6,6,195000,129960,201000,110000,0.019571,0.021485,0.826480
1086,-83,319,6,6,195000,137085,201000,116000,0.020650,0.022646,0.826480
1097,-77,325,6,6,195000,144400,201000,122000,0.021728,0.023808,0.826480
1107,-71,331,7,7,195000,151905,201000,128000,0.022807,0.024970,0.826480
1119,-63,339,7,7,195000,159600,201000,135000,0.024065,0.026325,0.826480
1131,-54,348,7,7,195000,167485,201000,144000,0.025683,0.028068,0.826480
1141,-47,355,7,7,195000,175560,201000,152000,0.027121,0.029617,0.826480
1153,-39,361,8,6,195000,183825,200500,158500,0.028292,0.030873,0.824424
1163,-30,369,8,8,195000,192280,199500,166500,0.029740,0.032414,0.820313
1174,-21,378,8,8,195000,200925,199500,175500,0.031368,0.034146,0.820313
1185,-12,387,8,8,195000,209760,199500,184500,0.032997,0.035879,0.820313
1195,-3,396,8,8,195000,218785,199500,193500,0.034625,0.037612,0.820313
1205,6,405,8,8,195000,228000,199500,202500,0.036254,0.039345,0.820313
1216,15,414,8,8,195000,237405,199500,211500,0.037882,0.041077,0.820313
1227,24,423,8,8,195000,247000,199500,220500,0.039511,0.042810,0.820313
1239,34,432,9,7,195000,256785,199500,229500,0.041139,0.044543,0.820313
1248,44,439,9,7,195000,266760,198000,239000,0.042870,0.046361,0.814145
1258,53,445,9,7,195000,276925,196500,246500,0.044245,0.047788,0.807977
1269,62,453,9,9,195000,287280,195500,254500,0.045717,0.049305,0.803865
1281,73,464,10,10,195000,297825,195500,264500,0.047558,0.051200,0.803865
1291,85,476,10,10,195000,308560,195500,276500,0.049768,0.053474,0.803865
1302,97,488,10,10,195000,319485,195500,288500,0.051977,0.055749,0.803865
1313,109,500,10,10,195000,330600,195500,300500,0.054186,0.058023,0.803865
1324,121,512,10,10,195000,341905,195500,312500,0.056395,0.060297,0.803865
1334,131,522,9,9,195000,353400,195500,323500,0.058420,0.062382,0.803865
1346,142,533,10,10,195000,365085,195500,333500,0.060261,0.064278,0.803865
1356,154,545,10,10,195000,376960,195500,345500,0.062471,0.066552,0.803865
1367,166,557,10,10,195000,389025,195500,357500,0.064680,0.068826,0.803865
1378,178,569,10,10,195000,401280,195500,369500,0.066889,0.071101,0.803865
1390,190,581,10,10,195000,413725,195500,381500,0.069080,0.073375,0.803865
1401,202,593,10,10,195000,426360,195500,393500,0.071272,0.075650,0.803865
1410,212,603,11,11,195000,439185,195500,404500,0.073280,0.077734,0.803865
1421,223,614,11,11,195000,452200,195500,414500,0.075107,0.079630,0.803865
1431,235,626,12,12,195000,465405,195500,426500,0.077298,0.081904,0.803865
1441,247,638,12,12,195000,478800,195500,438500,0.079489,0.084179,0.803865
1452,261,652,13,13,195000,492385,195500,451500,0.081863,0.086642,0.803865
1463,276,667,13,13,195000,506160,195500,466500,0.084602,0.089485,0.803865
1474,291,682,13,13,195000,520125,195500,481500,0.087342,0.092328,0.803865
1484,306,697,13,13,195000,534280,195500,496500,0.090081,0.095171,0.803865
1495,321,712,12,12,195000,548625,195500,511500,0.092820,0.098014,0.803865
1505,334,725,12,12,195000,563160,195500,525500,0.095377,0.100668,0.803865
1515,346,737,12,12,195000,577885,195500,537500,0.097568,0.102942,0.803865
1526,360,751,13,13,195000,592800,195500,550500,0.099942,0.105406,0.803865
1538,377,768,14,14,195000,607905,195500,566500,0.102864,0.108439,0.803865
1549,395,786,14,14,195000,623200,195500,584500,0.106151,0.111850,0.803865
1559,411,802,13,13,195000,638685,195500,601500,0.109255,0.115072,0.803865
1571,426,817,12,12,195000,654360,195500,616500,0.111994,0.117915,0.803865
1581,440,831,13,13,195000,670225,195500,631500,0.114734,0.120758,0.803865
1592,454,845,13,13,195000,686280,195500,644500,0.117108,0.123222,0.803865
1603,471,862,14,14,195000,702525,195500,660500,0.120029,0.126255,0.803865
1613,487,878,14,14,195000,718960,195500,677500,0.123134,0.129477,0.803865
1626,506,897,14,14,195000,735585,195500,694500,0.126238,0.132699,0.803865
1637,525,916,14,14,195000,752400,195500,714500,0.129890,0.136490,0.803865
1647,541,932,13,13,195000,769405,195500,731500,0.132995,0.139712,0.803865
1659,558,949,13,13,195000,786600,195500,747500,0.135917,0.142744,0.803865
1669,574,965,13,13,195000,803985,195500,764500,0.139021,0.145966,0.803865
1679,589,980,13,13,195000,821560,195500,779500,0.141760,0.148809,0.803865
1689,604,995,14,14,195000,839325,195500,794500,0.144499,0.151652,0.803865
1700,621,1012,15,15,195000,857280,195500,810500,0.147421,0.154685,0.803865
1711,641,1032,16,16,195000,875425,195500,829500,0.150891,0.158286,0.803865
1722,662,1053,16,16,195000,893760,195500,850500,0.154726,0.162266,0.803865
1732,681,1072,15,15,195000,912285,195500,870500,0.158378,0.166057,0.803865
1742,697,1088,14,14,195000,931000,195500,887500,0.161482,0.169279,0.803865
1753,714,1105,14,14,195000,949905,195500,903500,0.164404,0.172311,0.803865
1764,734,1125,16,16,195000,969000,195500,922500,0.167874,0.175912,0.803865
1774,753,1144,16,16,195000,988285,195500,942500,0.171526,0.179703,0.803865
1785,773,1164,16,16,195000,1007760,195500,961500,0.174996,0.183304,0.803865
1796,794,1185,16,16,195000,1027425,195500,982500,0.178831,0.187284,0.803865
1806,813,1204,16,16,195000,1047280,195500,1002500,0.182483,0.191075,0.803865
1817,833,1224,16,16,195000,1067325,195500,1021500,0.185953,0.194676,0.803865
1828,854,1245,16,16,195000,1087560,195500,1042500,0.189787,0.198656,0.803865
1838,873,1264,16,16,195000,1107985,195500,1062500,0.193440,0.202447,0.803865
1848,891,1282,16,16,195000,1128600,195500,1080500,0.196727,0.205858,0.803865
1859,911,1302,17,17,195000,1149405,195500,1099500,0.200196,0.209460,0.803865
1871,934,1325,17,17,195000,1170400,195500,1121500,0.204214,0.213629,0.803865
1882,956,1347,17,17,195000,1191585,195500,1144500,0.208414,0.217988,0.803865
1894,979,1370,17,17,195000,1212960,195500,1166500,0.212431,0.222158,0.803865
1905,1001,1392,17,17,195000,1234525,195500,1189500,0.216632,0.226517,0.803865
1916,1022,1413,16,16,195000,1256280,195500,1210500,0.220466,0.230498,0.803865
1927,1043,1434,16,16,195000,1278225,195500,1231500,0.224301,0.234478,0.803865
1937,1062,1453,17,17,195000,1300360,195500,1251500,0.227954,0.238268,0.803865
1947,1080,1471,17,17,195000,1322685,195500,1269500,0.231241,0.241680,0.803865
1959,1104,1495,19,19,195000,1345200,195500,1290500,0.235075,0.245660,0.803865
1969,1127,1518,19,19,195000,1367905,195500,1315500,0.239641,0.250399,0.803865
1980,1150,1541,19,19,195000,1390800,195500,1337500,0.243658,0.254568,0.803865
1990,1172,1563,19,19,195000,1413885,195500,1360500,0.247858,0.258927,0.803865
2001,1195,1586,19,19,195000,1437160,195500,1382500,0.251876,0.263097,0.803865
2011,1217,1608,19,19,195000,1460625,195500,1405500,0.256076,0.267456,0.803865
2022,1240,1631,20,20,195000,1484280,195500,1427500,0.260093,0.271626,0.803865
2032,1264,1655,20,20,195000,1508125,195500,1451500,0.264476,0.276175,0.803865
2044,1290,1681,20,20,195000,1532160,195500,1476500,0.269041,0.280913,0.803865
2054,1315,1706,20,20,195000,1556385,195500,1502500,0.273789,0.285841,0.803865
2064,1339,1730,20,20,195000,1580800,195500,1526500,0.278172,0.290390,0.803865
2077,1367,1758,20,20,195000,1605405,195500,1552500,0.282920,0.295316,0.803865
2088,1393,1784,19,19,195000,1630200,195500,1580500,0.288033,0.300622,0.803865
2099,1415,1806,18,18,195000,1654805,195500,1603500,0.292233,0.304980,0.803865
2110,1438,1829,19,19,195000,1679220,195500,1625500,0.296251,0.309149,0.803865
2120,1462,1853,20,20,195000,1703445,195500,1649500,0.300633,0.313697,0.803865
2132,1488,1879,20,20,195000,1727480,195500,1674500,0.305199,0.318434,0.803865
2143,1513,1904,20,20,195000,1751325,195500,1700500,0.309947,0.323360,0.803865
2154,1537,1928,19,19,195000,1774980,195500,1724500,0.314329,0.327908,0.803865
2164,1559,1950,19,19,195000,1798445,195500,1747500,0.318529,0.332266,0.803865
2174,1580,1971,19,19,195000,1821720,195500,1768500,0.322364,0.336245,0.803865
2186,1605,1996,20,20,195000,1844805,195500,1791500,0.326564,0.340603,0.803865
2196,1630,2021,20,20,195000,1867700,195500,1817500,0.331312,0.345530,0.803865
2206,1652,2043,19,19,195000,1890405,195500,1840500,0.335512,0.349888,0.803865
2218,1677,2068,19,19,195000,1912920,195500,1863500,0.339713,0.354246,0.803865
2228,1700,2091,19,19,195000,1935245,195500,1888500,0.344278,0.358983,0.803865
2240,1723,2114,18,18,195000,1957380,195500,1910500,0.348295,0.363152,0.803865
2250,1745,2136,18,18,195000,1979325,195500,1933500,0.352495,0.367510,0.803865
2261,1766,2157,18,18,195000,2001080,195500,1954500,0.356330,0.371489,0.803865
2272,1787,2178,18,18,195000,2022645,195500,1975500,0.360165,0.375469,0.803865
2283,1810,2201,19,19,195000,2044020,195500,1997500,0.364183,0.379637,0.803865
2294,1832,2223,18,18,195000,2065205,195500,2020500,0.368383,0.383996,0.803865
2305,1853,2244,18,18,195000,2086200,195500,2041500,0.372218,0.387975,0.803865
2315,1874,2265,18,18,195000,2107005,195500,2062500,0.376052,0.391954,0.803865
2325,1895,2284,18,18,195000,2127620,195000,2083000,0.379804,0.395831,0.801809
2335,1916,2304,18,18,195000,2148045,194000,2103000,0.383480,0.399598,0.797697
2346,1937,2325,18,18,195000,2168280,194000,2124000,0.387339,0.403553,0.797697
2356,1958,2346,18,18,195000,2188325,194000,2145000,0.391198,0.407509,0.797697
2367,1979,2367,18,18,195000,2208180,194000,2166000,0.395058,0.411464,0.797697
2377,1998,2386,17,17,195000,2227845,194000,2186000,0.398733,0.415231,0.797697
2389,2020,2408,17,17,195000,2247320,194000,2206000,0.402409,0.418999,0.797697
2399,2040,2428,17,17,195000,2266605,194000,2228000,0.406452,0.423142,0.797697
2409,2057,2445,16,16,195000,2285700,194000,2246000,0.409760,0.426533,0.797697
2420,2076,2464,16,16,195000,2304605,194000,2263000,0.412884,0.429735,0.797697
2431,2097,2485,17,17,195000,2323320,194000,2284000,0.416744,0.433690,0.797697
2441,2116,2504,17,17,195000,2341845,194000,2304000,0.420419,0.437457,0.797697
2452,2136,2524,16,16,195000,2360180,194000,2323000,0.423911,0.441036,0.797697
2462,2155,2543,16,16,195000,2378325,194000,2343000,0.427587,0.444803,0.797697
2472,2173,2561,16,16,195000,2396280,194000,2361000,0.430895,0.448194,0.797697
2484,2193,2581,16,16,195000,2414045,194000,2380000,0.434387,0.451773,0.797697
2495,2212,2600,15,15,195000,2431620,194000,2400000,0.438062,0.455540,0.797697
2505,2230,2618,15,15,195000,2449005,194000,2418000,0.441370,0.458930,0.797697
2516,2248,2636,15,15,195000,2466200,194000,2436000,0.444678,0.462321,0.797697
2527,2266,2654,14,14,195000,2483205,194000,2454000,0.447986,0.465711,0.797697
2538,2284,2672,14,14,195000,2500020,194000,2472000,0.451294,0.469101,0.797697
2548,2300,2688,14,14,195000,2516645,194000,2489000,0.454418,0.472304,0.797697
2559,2317,2705,14,14,195000,2533080,194000,2505000,0.457359,0.475317,0.797697
2569,2333,2721,14,14,195000,2549325,194000,2522000,0.460483,0.478519,0.797697
2580,2350,2738,14,14,195000,2565380,194000,2538000,0.463424,0.481533,0.797697
2590,2366,2754,14,14,195000,2581245,194000,2555000,0.466548,0.484735,0.797697
2601,2381,2769,13,13,195000,2596920,194000,2570000,0.469305,0.487560,0.797697
2612,2398,2786,14,14,195000,2612405,194000,2586000,0.472245,0.490574,0.797697
2622,2414,2802,13,13,195000,2627700,194000,2603000,0.475369,0.493776,0.797697
2633,2429,2817,13,13,195000,2642805,194000,2618000,0.478126,0.496602,0.797697
2643,2444,2832,13,13,195000,2657720,194000,2633000,0.480883,0.499427,0.797697
2654,2459,2847,13,13,195000,2672445,194000,2648000,0.483640,0.502252,0.797697
2663,2472,2860,13,13,195000,2686980,194000,2662000,0.486212,0.504889,0.797697
2673,2486,2874,13,13,195000,2701325,194000,2675000,0.488602,0.507338,0.797697
2683,2501,2889,14,14,195000,2715480,194000,2690000,0.491358,0.510163,0.797697
2695,2518,2906,13,13,195000,2729445,194000,2706000,0.494299,0.513177,0.797697
2706,2534,2922,13,13,195000,2743220,194000,2723000,0.497423,0.516379,0.797697
2716,2548,2936,12,12,195000,2756805,194000,2738000,0.500180,0.519204,0.797697
2726,2560,2948,11,11,195000,2770200,194000,2750000,0.502385,0.521465,0.797697
2737,2573,2961,12,12,195000,2783405,194000,2762000,0.504590,0.523725,0.797697
2748,2588,2976,12,12,195000,2796420,194000,2777000,0.507347,0.526550,0.797697
2757,2601,2989,12,12,195000,2809245,194000,2791000,0.509920,0.529188,0.797697
2768,2615,3003,12,12,195000,2821880,194000,2804000,0.512309,0.531636,0.797697
2779,2628,3016,11,11,195000,2834325,194000,2818000,0.514882,0.534273,0.797697
2790,2640,3028,11,11,195000,2846580,194000,2830000,0.517087,0.536533,0.797697
2802,2654,3042,11,11,195000,2858645,194000,2843000,0.519477,0.538982,0.797697
2813,2667,3055,11,11,195000,2870520,194000,2857000,0.522049,0.541619,0.797697
2823,2679,3067,10,10,195000,2882205,194000,2869000,0.524255,0.543879,0.797697
2835,2691,3079,10,10,195000,2893700,194000,2881000,0.526460,0.546140,0.797697
2846,2703,3091,10,10,195000,2905005,194000,2893000,0.528665,0.548400,0.797697
2857,2713,3101,9,9,195000,2916120,194000,2904000,0.530687,0.550472,0.797697
2869,2724,3112,10,10,195000,2927045,194000,2914000,0.532525,0.552356,0.797697
2880,2736,3124,10,10,195000,2937780,194000,2926000,0.534730,0.554616,0.797697
2890,2746,3134,9,9,195000,2948325,194000,2937000,0.536752,0.556688,0.797697
2901,2755,3143,9,9,195000,2958680,194000,2946000,0.538406,0.558383,0.797697
2912,2766,3154,10,10,195000,2968845,194000,2956000,0.540243,0.560266,0.797697
2922,2778,3166,10,10,195000,2978820,194000,2968000,0.542449,0.562527,0.797697
